# ABS is the dust attenuation cross-section, with R_V=A(V)/E(B-V)=3.1
# This is the attenuation law described in the paper
# To Apply multiply the galaxy spectrum by exp(-Dust_column*ABS)
# The Dust Column is an integrated depth that gives a certain A(V) :
# where A(V)=-2.5*log10(exp(-dust_col*abs[V_band]))
# as an example, the dust_col for 5 A(V)s has been included
#  
# A(V)        0.0      0.5      1.0      2.0      4.0     10.0
# dust_col   0.00000  2.02923  4.05845  8.11690 16.23380 40.58450
# 
# Notes added by Sébastien Viaene, Dec 27, 2015:
# In practice, compute the Av attenuation using equation 4 of Kreckel et al. 2013
# This assumes a screen geometry, which is not completely unrealistic for star forming regions.
# Av,screen = 0.67* Dust_column / 1e5 Msun/kpc2 with Dust_column in Msun/kpc2
#
# Then, to compute the attenuation at any other wavelength:
# A_lambda = Abs_lambda / Abs_V * Av
 
# wavel. (um)   Abs()
 7.76812E+05  7.19172E-12
 7.10418E+05  7.86012E-12
 6.49699E+05  9.39796E-12
 5.94168E+05  1.12367E-11
 5.43385E+05  1.34351E-11
 4.96943E+05  1.60637E-11
 4.54469E+05  1.92065E-11
 4.15626E+05  2.29643E-11
 3.80102E+05  2.74573E-11
 3.47615E+05  3.28293E-11
 3.17904E+05  3.92523E-11
 2.90733E+05  4.69320E-11
 2.65884E+05  5.61143E-11
 2.43159E+05  6.70931E-11
 2.22376E+05  8.02198E-11
 2.03370E+05  9.59148E-11
 1.85988E+05  1.14681E-10
 1.70091E+05  1.37118E-10
 1.55554E+05  1.63945E-10
 1.42258E+05  1.96021E-10
 1.30100E+05  2.34372E-10
 1.18980E+05  2.80227E-10
 1.08811E+05  3.35053E-10
 9.95106E+04  4.00606E-10
 9.10056E+04  4.78985E-10
 8.32274E+04  5.72698E-10
 7.61139E+04  6.84746E-10
 6.96085E+04  8.18717E-10
 6.36590E+04  9.78899E-10
 5.82181E+04  1.17042E-09
 5.32423E+04  1.39941E-09
 4.86916E+04  1.67321E-09
 4.45299E+04  2.00057E-09
 4.07239E+04  2.39198E-09
 3.72433E+04  2.85997E-09
 3.40601E+04  3.41953E-09
 3.11490E+04  4.08855E-09
 2.84867E+04  4.88848E-09
 2.60519E+04  5.84491E-09
 2.38253E+04  6.98847E-09
 2.17889E+04  8.35576E-09
 1.99266E+04  9.99056E-09
 1.82235E+04  1.19452E-08
 1.66659E+04  1.42823E-08
 1.52415E+04  1.70766E-08
 1.39388E+04  2.04177E-08
 1.27475E+04  2.44124E-08
 1.16579E+04  2.91886E-08
 1.06615E+04  3.48994E-08
 9.75029E+03  4.17275E-08
 8.91694E+03  4.98915E-08
 8.15479E+03  5.96527E-08
 7.45781E+03  7.13237E-08
 6.82040E+03  8.52782E-08
 6.23746E+03  1.01963E-07
 5.70435E+03  1.21912E-07
 5.21680E+03  1.45764E-07
 4.77092E+03  1.74283E-07
 4.36315E+03  2.08381E-07
 3.99023E+03  2.49151E-07
 3.64919E+03  2.97897E-07
 3.33729E+03  3.56181E-07
 3.05205E+03  4.25867E-07
 2.79119E+03  5.09188E-07
 2.55263E+03  6.08811E-07
 2.33446E+03  7.27924E-07
 2.13493E+03  8.70343E-07
 1.95246E+03  1.04062E-06
 1.78558E+03  1.24422E-06
 1.63297E+03  1.48766E-06
 1.49340E+03  1.77872E-06
 1.36576E+03  2.12672E-06
 1.24903E+03  2.54281E-06
 1.14228E+03  3.04031E-06
 1.04465E+03  3.63515E-06
 9.90100E+02  4.34637E-06
 9.70686E+02  4.84272E-06
 9.44793E+02  5.02853E-06
 9.19768E+02  5.29304E-06
 9.01733E+02  5.57186E-06
 8.77681E+02  5.78631E-06
 8.54433E+02  6.09173E-06
 8.37680E+02  6.41364E-06
 8.15337E+02  6.66127E-06
 7.93740E+02  7.01396E-06
 7.78177E+02  7.38572E-06
 7.57419E+02  7.67252E-06
 7.37358E+02  8.08096E-06
 7.22900E+02  8.51115E-06
 7.03616E+02  8.84189E-06
 6.84981E+02  9.31322E-06
 6.71550E+02  9.81100E-06
 6.58382E+02  1.01941E-05
 6.45472E+02  1.05933E-05
 6.31206E+02  1.10087E-05
 6.17290E+02  1.14966E-05
 6.04552E+02  1.20062E-05
 5.92089E+02  1.25024E-05
 5.78074E+02  1.30191E-05
 5.64447E+02  1.36378E-05
 5.53015E+02  1.42863E-05
 5.41822E+02  1.48685E-05
 5.29965E+02  1.54755E-05
 5.18394E+02  1.61593E-05
 5.08080E+02  1.68735E-05
 4.97975E+02  1.75504E-05
 4.83784E+02  1.82553E-05
 4.70119E+02  1.93170E-05
 4.56721E+02  2.04406E-05
 4.41922E+02  2.16297E-05
 4.27343E+02  2.30806E-05
 4.15093E+02  2.46528E-05
 4.06953E+02  2.61151E-05
 3.98974E+02  2.71562E-05
 3.91151E+02  2.82390E-05
 3.82089E+02  2.93657E-05
 3.69943E+02  3.07553E-05
 3.59550E+02  3.27818E-05
 3.49304E+02  3.46982E-05
 3.39437E+02  3.67413E-05
 3.32781E+02  3.89070E-05
 3.24667E+02  4.04692E-05
 3.14180E+02  4.24960E-05
 3.05553E+02  4.53559E-05
 2.99561E+02  4.79555E-05
 2.92254E+02  4.98877E-05
 2.85158E+02  5.24093E-05
 2.79567E+02  5.50606E-05
 2.72747E+02  5.72955E-05
 2.66125E+02  6.02159E-05
 2.60907E+02  6.32846E-05
 2.54542E+02  6.58573E-05
 2.48362E+02  6.92040E-05
 2.41285E+02  7.27212E-05
 2.35552E+02  7.70588E-05
 2.30277E+02  8.09189E-05
 2.22608E+02  8.47193E-05
 2.17787E+02  9.07671E-05
 2.13055E+02  9.49083E-05
 2.09177E+02  9.92070E-05
 2.05343E+02  1.03022E-04
 2.00034E+02  1.06984E-04
 1.94334E+02  1.12922E-04
 1.88845E+02  1.19884E-04
 1.83430E+02  1.27286E-04
 1.77103E+02  1.35206E-04
 1.72192E+02  1.45535E-04
 1.68090E+02  1.54576E-04
 1.64101E+02  1.62792E-04
 1.61136E+02  1.71560E-04
 1.57663E+02  1.78571E-04
 1.52826E+02  1.87370E-04
 1.49340E+02  2.01099E-04
 1.46008E+02  2.12015E-04
 1.42414E+02  2.23419E-04
 1.39621E+02  2.36837E-04
 1.36884E+02  2.46664E-04
 1.33497E+02  2.55846E-04
 1.29586E+02  2.67837E-04
 1.27375E+02  2.81929E-04
 1.25492E+02  2.90426E-04
 1.23969E+02  2.98206E-04
 1.22441E+02  3.05260E-04
 1.20480E+02  3.12620E-04
 1.18812E+02  3.22583E-04
 1.16482E+02  3.31464E-04
 1.14102E+02  3.44993E-04
 1.11772E+02  3.59777E-04
 1.09580E+02  3.75370E-04
 1.07230E+02  3.91379E-04
 1.04513E+02  4.09776E-04
 1.01518E+02  4.32967E-04
 9.83678E+01  4.61174E-04
 9.54753E+01  4.93778E-04
 9.32654E+01  5.26750E-04
 9.08952E+01  5.54152E-04
 8.82953E+01  5.85730E-04
 8.62745E+01  6.23634E-04
 8.41967E+01  6.55569E-04
 8.14724E+01  6.90864E-04
 7.94801E+01  7.41373E-04
 7.80698E+01  7.82141E-04
 7.63215E+01  8.12542E-04
 7.47222E+01  8.52796E-04
 7.28389E+01  8.92188E-04
 7.08245E+01  9.41507E-04
 6.95995E+01  9.99055E-04
 6.83947E+01  1.03637E-03
 6.68869E+01  1.07478E-03
 6.50541E+01  1.12614E-03
 6.31413E+01  1.19290E-03
 6.15994E+01  1.26945E-03
 6.01057E+01  1.33534E-03
 5.87237E+01  1.40407E-03
 5.75243E+01  1.47175E-03
 5.64584E+01  1.53411E-03
 5.57130E+01  1.59283E-03
 5.48426E+01  1.63552E-03
 5.32877E+01  1.68684E-03
 5.17947E+01  1.78475E-03
 5.10358E+01  1.88585E-03
 5.02866E+01  1.94041E-03
 4.95366E+01  1.99605E-03
 4.87968E+01  2.05361E-03
 4.77733E+01  2.11187E-03
 4.68365E+01  2.19725E-03
 4.58572E+01  2.27862E-03
 4.51736E+01  2.36723E-03
 4.47602E+01  2.43267E-03
 4.40740E+01  2.47337E-03
 4.31574E+01  2.54117E-03
 4.22684E+01  2.63613E-03
 4.13327E+01  2.73361E-03
 4.04079E+01  2.83796E-03
 3.93199E+01  2.94706E-03
 3.82549E+01  3.07960E-03
 3.71091E+01  3.21583E-03
 3.60299E+01  3.36621E-03
 3.53703E+01  3.51378E-03
 3.47826E+01  3.60798E-03
 3.42057E+01  3.69219E-03
 3.36832E+01  3.77845E-03
 3.32030E+01  3.86014E-03
 3.26355E+01  3.93658E-03
 3.22106E+01  4.02964E-03
 3.17811E+01  4.10278E-03
 3.11554E+01  4.17894E-03
 3.04190E+01  4.29275E-03
 2.96520E+01  4.43388E-03
 2.90273E+01  4.59049E-03
 2.84635E+01  4.72280E-03
 2.79054E+01  4.84981E-03
 2.73582E+01  4.98246E-03
 2.66505E+01  5.11998E-03
 2.60349E+01  5.31129E-03
 2.56608E+01  5.49205E-03
 2.54561E+01  5.60875E-03
 2.51989E+01  5.67535E-03
 2.48513E+01  5.76128E-03
 2.45549E+01  5.88152E-03
 2.42473E+01  5.98882E-03
 2.39497E+01  6.10661E-03
 2.34396E+01  6.22920E-03
 2.28991E+01  6.46662E-03
 2.25969E+01  6.72518E-03
 2.22991E+01  6.86022E-03
 2.20598E+01  7.01108E-03
 2.18226E+01  7.14609E-03
 2.14163E+01  7.31586E-03
 2.08461E+01  7.65085E-03
 2.03199E+01  7.98356E-03
 1.99456E+01  8.25041E-03
 1.93677E+01  8.51326E-03
 1.89201E+01  8.90130E-03
 1.86817E+01  9.23567E-03
 1.84806E+01  9.34246E-03
 1.82814E+01  9.40872E-03
 1.81047E+01  9.46936E-03
 1.79294E+01  9.48584E-03
 1.76619E+01  9.40634E-03
 1.73994E+01  9.25540E-03
 1.70861E+01  9.05912E-03
 1.67511E+01  8.83981E-03
 1.64226E+01  8.62370E-03
 1.59633E+01  8.33891E-03
 1.55511E+01  7.81141E-03
 1.52112E+01  7.30359E-03
 1.49580E+01  6.96600E-03
 1.47995E+01  6.72253E-03
 1.45978E+01  6.63248E-03
 1.44049E+01  6.52200E-03
 1.41944E+01  6.41900E-03
 1.38406E+01  6.32001E-03
 1.34959E+01  6.62632E-03
 1.32913E+01  7.09130E-03
 1.30908E+01  7.44079E-03
 1.29520E+01  7.92606E-03
 1.28148E+01  8.29807E-03
 1.25884E+01  8.68525E-03
 1.24287E+01  9.34104E-03
 1.23377E+01  9.84124E-03
 1.21853E+01  1.01461E-02
 1.20066E+01  1.07077E-02
 1.18939E+01  1.14587E-02
 1.17823E+01  1.19728E-02
 1.16296E+01  1.24262E-02
 1.14836E+01  1.31107E-02
 1.13402E+01  1.39177E-02
 1.12374E+01  1.47592E-02
 1.11689E+01  1.53079E-02
 1.10353E+01  1.56228E-02
 1.08578E+01  1.62829E-02
 1.07786E+01  1.73222E-02
 1.06997E+01  1.78519E-02
 1.06105E+01  1.84182E-02
 1.05221E+01  1.90901E-02
 1.02711E+01  1.96333E-02
 1.00491E+01  2.11627E-02
 9.98090E+00  2.26685E-02
 9.76273E+00  2.31009E-02
 9.50741E+00  2.40403E-02
 9.27804E+00  2.52437E-02
 9.09115E+00  2.37591E-02
 9.00551E+00  2.17630E-02
 8.84720E+00  2.09655E-02
 8.69311E+00  1.93813E-02
 8.56807E+00  1.77384E-02
 8.41584E+00  1.64711E-02
 8.22747E+00  1.48327E-02
 8.07315E+00  1.23190E-02
 7.98646E+00  1.08523E-02
 7.90275E+00  1.03474E-02
 7.80851E+00  1.00120E-02
 7.72160E+00  9.70267E-03
 7.63426E+00  9.36368E-03
 7.56696E+00  8.83423E-03
 7.51065E+00  8.33527E-03
 7.43975E+00  7.88176E-03
 7.39494E+00  7.48126E-03
 7.37341E+00  7.26762E-03
 7.31706E+00  7.17720E-03
 7.14788E+00  6.96744E-03
 6.98519E+00  6.55963E-03
 6.85045E+00  6.35359E-03
 6.71989E+00  6.39826E-03
 6.66011E+00  6.48546E-03
 6.60098E+00  6.55319E-03
 6.54986E+00  6.64391E-03
 6.49918E+00  6.73153E-03
 6.43249E+00  6.85556E-03
 6.36669E+00  7.07436E-03
 6.26770E+00  7.40750E-03
 6.10139E+00  7.98232E-03
 5.96963E+00  7.98892E-03
 5.90650E+00  7.58390E-03
 5.85444E+00  7.51218E-03
 5.76843E+00  7.49835E-03
 5.67192E+00  7.54916E-03
 5.63777E+00  7.63540E-03
 5.60382E+00  7.67612E-03
 5.55566E+00  7.72301E-03
 5.51159E+00  7.79438E-03
 5.45941E+00  7.86448E-03
 5.40040E+00  7.95180E-03
 5.33892E+00  8.05636E-03
 5.23127E+00  8.17114E-03
 5.12722E+00  8.39033E-03
 5.09396E+00  8.62082E-03
 5.06093E+00  8.69778E-03
 5.01725E+00  8.77561E-03
 4.97599E+00  8.88128E-03
 4.92964E+00  8.98472E-03
 4.88498E+00  9.10447E-03
 4.77740E+00  9.22308E-03
 4.67114E+00  9.52044E-03
 4.63840E+00  9.83866E-03
 4.60594E+00  9.94081E-03
 4.56520E+00  1.00438E-02
 4.52997E+00  1.01764E-02
 4.49500E+00  1.02936E-02
 4.47263E+00  1.04125E-02
 4.46177E+00  1.04900E-02
 4.43395E+00  1.05280E-02
 4.40448E+00  1.06266E-02
 4.37525E+00  1.07332E-02
 4.33123E+00  1.08406E-02
 4.28785E+00  1.10065E-02
 4.24438E+00  1.11746E-02
 4.20368E+00  1.13478E-02
 4.16756E+00  1.15139E-02
 4.14169E+00  1.16640E-02
 4.11550E+00  1.17738E-02
 4.08168E+00  1.18866E-02
 4.05068E+00  1.20356E-02
 4.01805E+00  1.21750E-02
 3.98976E+00  1.23251E-02
 3.96006E+00  1.24580E-02
 3.93789E+00  1.25985E-02
 3.91586E+00  1.27050E-02
 3.86662E+00  1.28122E-02
 3.81836E+00  1.30578E-02
 3.79609E+00  1.33079E-02
 3.77397E+00  1.34264E-02
 3.73945E+00  1.35455E-02
 3.68553E+00  1.37350E-02
 3.61326E+00  1.40392E-02
 3.54242E+00  1.44682E-02
 3.46557E+00  1.49122E-02
 3.41039E+00  1.54199E-02
 3.38256E+00  1.58096E-02
 3.33935E+00  1.60222E-02
 3.29630E+00  1.64766E-02
 3.28208E+00  1.68664E-02
 3.25270E+00  1.69140E-02
 3.21027E+00  1.70611E-02
 3.14946E+00  1.73142E-02
 3.09065E+00  1.78029E-02
 3.07134E+00  1.83166E-02
 3.05510E+00  1.84920E-02
 3.03548E+00  1.86417E-02
 2.99579E+00  1.88259E-02
 2.92457E+00  1.92072E-02
 2.87218E+00  1.99188E-02
 2.81378E+00  2.04765E-02
 2.75748E+00  2.11229E-02
 2.71538E+00  2.17838E-02
 2.67438E+00  2.22971E-02
 2.65138E+00  2.28232E-02
 2.62958E+00  2.31241E-02
 2.61099E+00  2.34130E-02
 2.59919E+00  2.36646E-02
 2.58658E+00  2.38270E-02
 2.57505E+00  2.40025E-02
 2.56358E+00  2.41655E-02
 2.52659E+00  2.43292E-02
 2.49510E+00  2.48696E-02
 2.48078E+00  2.53459E-02
 2.45053E+00  2.55637E-02
 2.41996E+00  2.60351E-02
 2.37007E+00  2.65310E-02
 2.32289E+00  2.73706E-02
 2.29676E+00  2.82185E-02
 2.27888E+00  2.87046E-02
 2.24743E+00  2.90483E-02
 2.20939E+00  2.96624E-02
 2.19070E+00  3.04309E-02
 2.17659E+00  3.08151E-02
 2.17159E+00  3.11122E-02
 2.16390E+00  3.12186E-02
 2.12454E+00  3.13833E-02
 2.08509E+00  3.22476E-02
 2.07088E+00  3.31662E-02
 2.03596E+00  3.35054E-02
 2.00199E+00  3.43633E-02
 1.98943E+00  3.52482E-02
 1.97782E+00  3.55804E-02
 1.96622E+00  3.58878E-02
 1.95523E+00  3.62005E-02
 1.94963E+00  3.65014E-02
 1.94462E+00  3.66566E-02
 1.93903E+00  3.67965E-02
 1.92917E+00  3.69542E-02
 1.91399E+00  3.72342E-02
 1.90446E+00  3.76750E-02
 1.89499E+00  3.79570E-02
 1.88797E+00  3.82406E-02
 1.88242E+00  3.84540E-02
 1.87330E+00  3.86221E-02
 1.86324E+00  3.88965E-02
 1.85150E+00  3.92029E-02
 1.83433E+00  3.95668E-02
 1.81823E+00  4.01101E-02
 1.80883E+00  4.06343E-02
 1.79934E+00  4.09462E-02
 1.78708E+00  4.12657E-02
 1.76667E+00  4.16852E-02
 1.75177E+00  4.23919E-02
 1.74623E+00  4.29209E-02
 1.74208E+00  4.31202E-02
 1.73620E+00  4.32705E-02
 1.72352E+00  4.34852E-02
 1.71099E+00  4.39556E-02
 1.69570E+00  4.44309E-02
 1.68064E+00  4.50235E-02
 1.67229E+00  4.56235E-02
 1.66399E+00  4.59553E-02
 1.65395E+00  4.62862E-02
 1.64399E+00  4.66935E-02
 1.63192E+00  4.71040E-02
 1.62018E+00  4.76111E-02
 1.61074E+00  4.81155E-02
 1.60494E+00  4.85284E-02
 1.59899E+00  4.87855E-02
 1.59351E+00  4.90518E-02
 1.58804E+00  4.93004E-02
 1.57371E+00  4.95492E-02
 1.55959E+00  5.01927E-02
 1.55248E+00  5.08384E-02
 1.54374E+00  5.11700E-02
 1.53299E+00  5.15824E-02
 1.50400E+00  5.20998E-02
 1.48015E+00  5.35367E-02
 1.47587E+00  5.47909E-02
 1.46526E+00  5.50183E-02
 1.45848E+00  5.55914E-02
 1.45110E+00  5.59644E-02
 1.43999E+00  5.63749E-02
 1.43529E+00  5.70063E-02
 1.43059E+00  5.72783E-02
 1.41254E+00  5.75511E-02
 1.39489E+00  5.86160E-02
 1.38336E+00  5.96676E-02
 1.37199E+00  6.03684E-02
 1.36598E+00  6.10781E-02
 1.35999E+00  6.14605E-02
 1.34382E+00  6.18448E-02
 1.32804E+00  6.29050E-02
 1.32095E+00  6.39690E-02
 1.31397E+00  6.44454E-02
 1.30700E+00  6.49211E-02
 1.30248E+00  6.54034E-02
 1.29874E+00  6.57197E-02
 1.29326E+00  6.59845E-02
 1.28788E+00  6.63756E-02
 1.28181E+00  6.67646E-02
 1.27588E+00  6.72091E-02
 1.27000E+00  6.76489E-02
 1.26347E+00  6.80910E-02
 1.25740E+00  6.85886E-02
 1.25224E+00  6.90541E-02
 1.24736E+00  6.94476E-02
 1.24228E+00  6.98239E-02
 1.22377E+00  7.02196E-02
 1.20500E+00  7.16952E-02
 1.19796E+00  7.32762E-02
 1.19099E+00  7.38839E-02
 1.18371E+00  7.44958E-02
 1.17650E+00  7.51238E-02
 1.17188E+00  7.57471E-02
 1.16760E+00  7.61515E-02
 1.16233E+00  7.65309E-02
 1.14347E+00  7.70031E-02
 1.12490E+00  7.87342E-02
 1.11926E+00  8.05425E-02
 1.10950E+00  8.10975E-02
 1.10000E+00  8.20622E-02
 1.09690E+00  8.30290E-02
 1.09381E+00  8.33495E-02
 1.08853E+00  8.36710E-02
 1.08365E+00  8.42267E-02
 1.07917E+00  8.47481E-02
 1.07456E+00  8.52333E-02
 1.06981E+00  8.57372E-02
 1.05581E+00  8.62641E-02
 1.04193E+00  8.78315E-02
 1.03736E+00  8.94230E-02
 1.03320E+00  8.99567E-02
 1.02870E+00  9.04499E-02
 1.02048E+00  9.09896E-02
 1.01237E+00  9.19945E-02
 1.00864E+00  9.30132E-02
 1.00494E+00  9.34895E-02
 1.00131E+00  9.39680E-02
 9.97335E-01  9.44414E-02
 9.92045E-01  9.49546E-02
 9.87497E-01  9.56387E-02
 9.84014E-01  9.62357E-02
 9.80426E-01  9.66990E-02
 9.76204E-01  9.71808E-02
 9.70712E-01  9.77558E-02
 9.65267E-01  9.85154E-02
 9.59905E-01  9.92813E-02
 9.54595E-01  1.00048E-01
 9.50829E-01  1.00820E-01
 9.47088E-01  1.01376E-01
 9.43506E-01  1.01934E-01
 9.39947E-01  1.02469E-01
 9.37205E-01  1.02984E-01
 9.34471E-01  1.03384E-01
 9.28655E-01  1.03785E-01
 9.22900E-01  1.04650E-01
 9.17603E-01  1.05524E-01
 9.12360E-01  1.06340E-01
 9.09649E-01  1.07163E-01
 9.07024E-01  1.07594E-01
 9.03274E-01  1.08014E-01
 8.98805E-01  1.08621E-01
 8.93641E-01  1.09354E-01
 8.89404E-01  1.10215E-01
 8.86219E-01  1.10922E-01
 8.82994E-01  1.11448E-01
 8.79081E-01  1.11986E-01
 8.75443E-01  1.12649E-01
 8.72938E-01  1.13275E-01
 8.70422E-01  1.13710E-01
 8.68645E-01  1.14152E-01
 8.66499E-01  1.14468E-01
 8.64092E-01  1.14852E-01
 8.61636E-01  1.15286E-01
 8.58132E-01  1.15733E-01
 8.54846E-01  1.16381E-01
 8.52574E-01  1.16999E-01
 8.50530E-01  1.17429E-01
 8.47727E-01  1.17821E-01
 8.45711E-01  1.18367E-01
 8.43356E-01  1.18763E-01
 8.37870E-01  1.19229E-01
 8.30456E-01  1.20299E-01
 8.26069E-01  1.21764E-01
 8.23671E-01  1.22656E-01
 8.21292E-01  1.23149E-01
 8.20395E-01  1.23646E-01
 8.19956E-01  1.23836E-01
 8.19598E-01  1.23930E-01
 8.16669E-01  1.24006E-01
 8.11070E-01  1.24633E-01
 8.06961E-01  1.25858E-01
 8.04296E-01  1.26779E-01
 8.02253E-01  1.27385E-01
 7.99947E-01  1.27856E-01
 7.96302E-01  1.28395E-01
 7.92687E-01  1.29255E-01
 7.90827E-01  1.30114E-01
 7.89357E-01  1.30556E-01
 7.87032E-01  1.30907E-01
 7.85386E-01  1.31464E-01
 7.83520E-01  1.31862E-01
 7.80620E-01  1.32320E-01
 7.77855E-01  1.33040E-01
 7.75413E-01  1.33731E-01
 7.73017E-01  1.34351E-01
 7.70953E-01  1.34968E-01
 7.68821E-01  1.35504E-01
 7.66347E-01  1.36061E-01
 7.63708E-01  1.36715E-01
 7.61506E-01  1.37422E-01
 7.59272E-01  1.38016E-01
 7.57250E-01  1.38623E-01
 7.55412E-01  1.39179E-01
 7.52887E-01  1.39689E-01
 7.49707E-01  1.40396E-01
 7.45891E-01  1.41287E-01
 7.41604E-01  1.42324E-01
 7.36861E-01  1.43503E-01
 7.33205E-01  1.44830E-01
 7.30908E-01  1.45871E-01
 7.28770E-01  1.46533E-01
 7.26316E-01  1.47155E-01
 7.23702E-01  1.47874E-01
 7.20730E-01  1.48648E-01
 7.17742E-01  1.49539E-01
 7.15656E-01  1.50445E-01
 7.13580E-01  1.51084E-01
 7.11249E-01  1.51728E-01
 7.08972E-01  1.52458E-01
 7.06475E-01  1.53175E-01
 7.03533E-01  1.53961E-01
 7.00569E-01  1.54890E-01
 6.96416E-01  1.55837E-01
 6.92309E-01  1.57190E-01
 6.90691E-01  1.58556E-01
 6.89079E-01  1.59103E-01
 6.84402E-01  1.59655E-01
 6.77610E-01  1.61285E-01
 6.73310E-01  1.63730E-01
 6.71408E-01  1.65331E-01
 6.69971E-01  1.66054E-01
 6.68312E-01  1.66603E-01
 6.65367E-01  1.67244E-01
 6.62440E-01  1.68357E-01
 6.60262E-01  1.69478E-01
 6.58276E-01  1.70326E-01
 6.56428E-01  1.71115E-01
 6.54657E-01  1.71857E-01
 6.52683E-01  1.72572E-01
 6.49845E-01  1.73383E-01
 6.46364E-01  1.74579E-01
 6.43509E-01  1.76072E-01
 6.42069E-01  1.77324E-01
 6.40827E-01  1.77966E-01
 6.39153E-01  1.78521E-01
 6.37705E-01  1.79273E-01
 6.36130E-01  1.79935E-01
 6.34689E-01  1.80668E-01
 6.33065E-01  1.81342E-01
 6.30953E-01  1.82106E-01
 6.24870E-01  1.83106E-01
 6.18610E-01  1.85984E-01
 6.16189E-01  1.89041E-01
 6.14769E-01  1.90254E-01
 6.13349E-01  1.90973E-01
 6.11023E-01  1.91696E-01
 6.08700E-01  1.92890E-01
 6.05160E-01  1.94102E-01
 6.00351E-01  1.95985E-01
 5.95618E-01  1.98593E-01
 5.90960E-01  2.01203E-01
 5.87559E-01  2.03722E-01
 5.83954E-01  2.05595E-01
 5.78999E-01  2.07622E-01
 5.75460E-01  2.10460E-01
 5.73765E-01  2.12529E-01
 5.72069E-01  2.13538E-01
 5.70414E-01  2.14559E-01
 5.69720E-01  2.15563E-01
 5.67597E-01  2.15985E-01
 5.64528E-01  2.17281E-01
 5.61124E-01  2.19177E-01
 5.57739E-01  2.21293E-01
 5.55754E-01  2.23403E-01
 5.53959E-01  2.24655E-01
 5.52181E-01  2.25800E-01
 5.49760E-01  2.26942E-01
 5.46716E-01  2.28519E-01
 5.43706E-01  2.30542E-01
 5.41142E-01  2.32579E-01
 5.39846E-01  2.34334E-01
 5.38548E-01  2.35228E-01
 5.36454E-01  2.36126E-01
 5.34410E-01  2.37599E-01
 5.32513E-01  2.39065E-01
 5.30756E-01  2.40441E-01
 5.29290E-01  2.41717E-01
 5.27880E-01  2.42744E-01
 5.26240E-01  2.43734E-01
 5.23245E-01  2.44894E-01
 5.20029E-01  2.47051E-01
 5.17957E-01  2.49412E-01
 5.15888E-01  2.50961E-01
 5.13163E-01  2.52535E-01
 5.09845E-01  2.54634E-01
 5.06569E-01  2.57234E-01
 5.03335E-01  2.59856E-01
 5.00752E-01  2.62503E-01
 4.98796E-01  2.64639E-01
 4.97375E-01  2.66232E-01
 4.95998E-01  2.67398E-01
 4.94379E-01  2.68533E-01
 4.92891E-01  2.69884E-01
 4.91234E-01  2.71139E-01
 4.89340E-01  2.72545E-01
 4.87735E-01  2.74176E-01
 4.86131E-01  2.75580E-01
 4.83821E-01  2.76997E-01
 4.81280E-01  2.79062E-01
 4.78766E-01  2.81367E-01
 4.76278E-01  2.83689E-01
 4.74169E-01  2.86043E-01
 4.72645E-01  2.88075E-01
 4.71309E-01  2.89516E-01
 4.69912E-01  2.90731E-01
 4.68378E-01  2.92008E-01
 4.66608E-01  2.93421E-01
